#"Step","Potential Energy (kJ/mole)","Kinetic Energy (kJ/mole)","Total Energy (kJ/mole)","Temperature (K)"
1,-2.7964489653282874,0.645375538362133,-2.1510734269661542,3.1681936286202674
2,-2.7947807353632927,1.5375197672086947,-1.257260968154598,7.547792007596976
3,-2.7943756479420143,1.9298704451311872,-0.8645052028108271,9.473868910253591
4,-2.795784406188948,1.8316006822321287,-0.9641837239568194,8.991455775270277
5,-2.7946126063125294,2.6854234052530175,-0.10918920105951191,13.182931203531883
6,-2.7945920513858304,3.558526189241531,0.7639341378557005,17.469053798731455
7,-2.794477300746354,4.629746638031012,1.8352693372846578,22.727749858572246
8,-2.7945785621022887,5.892101145967007,3.097522583864718,28.92473637475278
9,-2.7930588941567565,5.891377008991886,3.0983181148351293,28.9211815357258
10,-2.7930315450116385,6.105396931346194,3.3123653863345552,29.971820294240775
11,-2.790591015685732,6.565864668876357,3.7752736531906255,32.232288603793684
12,-2.789067656798733,7.128156980336948,4.339089323538215,34.99262086415897
13,-2.78874929153478,6.846966814909878,4.058217523375099,33.61223868729865
14,-2.7871884550547454,6.869065258301291,4.081876803246546,33.720721490555775
15,-2.781647366140986,7.033567161659063,4.251919795518077,34.52827283258008
16,-2.7778999060779737,8.204876253094369,5.426976347016396,40.27831103521808
17,-2.7720742237853777,8.674455374365548,5.902381150580171,42.583507764427964
18,-2.767437068382607,8.640661506581965,5.873224438199358,42.41761130533672
19,-2.7642638380555526,8.041716042163927,5.277452204108374,39.47734615510186
20,-2.758681337794057,7.6949854581016695,4.936304120307613,37.77522148198258
21,-2.7521872168735437,7.473445461863788,4.721258244990244,36.68766615513104
22,-2.743278986475808,8.153698517350103,5.410419530874295,40.02707595320105
23,-2.7366162405666845,8.737231430875706,6.000615190309022,42.89167981379031
24,-2.727601978408889,8.329074500579098,5.6014725221702095,40.88800891339538
25,-2.7224130526098786,9.686253085978086,6.963840033368207,47.55049345390523
26,-2.7122453522311143,9.776251358261966,7.064006006030851,47.99230126329361
27,-2.7017868168715795,11.575497997841456,8.873711180969877,56.82492878168211
28,-2.68944329975649,11.506373786007545,8.816930486251055,56.485593194108745
29,-2.6779484861352105,12.379763974998287,9.701815488863076,60.773126680553446
30,-2.6649747461724087,13.387992721891674,10.723017975719266,65.72259207275901
31,-2.6501156418895224,15.335979071077201,12.685863429187679,75.28539322229041
32,-2.633617123160818,15.775084091551358,13.14146696839054,77.4409904605929
33,-2.61715539113191,13.89858195492304,11.28142656379113,68.22911030714614
34,-2.6044488405987747,14.313454523407545,11.70900568280877,70.26574874481868
35,-2.590262357372292,14.129032067184768,11.538769709812478,69.36040601636273
36,-2.5732423051629048,14.510429568797138,11.937187263634232,71.23271301090205
37,-2.5588783578614236,14.959485735171997,12.400607377310573,73.43716112000153
38,-2.5434841979635694,15.911404192449131,13.367919994485561,78.11019536447455
39,-2.526201687069605,15.65926441516122,13.133062728091614,76.87242357356875
40,-2.5079008185734177,16.312967836215854,13.805067017642436,80.08149936043324
41,-2.491765019097678,16.905648711083956,14.413883691986278,82.99101120268186
42,-2.47307635495713,16.559916982789424,14.086840627832295,81.29378998234489
43,-2.452398065472673,16.104154450169982,13.65175638469731,79.05641985258562
44,-2.430685563146624,17.19033016406295,14.759644600916324,84.38853235417044
45,-2.410659312494433,18.311140361629015,15.900481049134582,89.89066795700596
46,-2.388756691748055,18.476243431845184,16.087486740097127,90.70117046915881
47,-2.363161669577181,18.48979235440065,16.126630684823468,90.76768307703334
48,-2.3368818306137498,19.242066742661354,16.905184912047606,94.46065063187802
49,-2.308826349057585,18.67095968759837,16.362133338540783,91.65704617903098
50,-2.2821710968678617,18.574672983082888,16.292501886215025,91.18436801626551
51,-2.253105402351954,19.605054504306487,17.35194910195453,96.24258292610445
52,-2.2233151478288438,19.477695900920708,17.254380753091866,95.61737063990466
53,-2.1924002788350627,21.123640889428334,18.93124061059327,103.69742963762152
54,-2.1587682092147995,22.830644680070915,20.671876470856116,112.07723056293932
55,-2.1252393450981626,22.978214764518384,20.852975419420222,112.80166242242372
56,-2.089650560067181,23.930158613849212,21.84050805378203,117.47482131826317
57,-2.0510664792451414,25.04806595228269,22.99699947303755,122.96270658271125
58,-2.010827569557205,26.119780471552648,24.108952901995444,128.2238280690755
59,-1.969903008046169,25.664380190195033,23.694477182148862,125.98823625608135
60,-1.92643888281854,27.45594400021628,25.52950511739774,134.78314822714995
61,-1.879078637077314,31.290332886917835,29.41125424984052,153.60643129010933
62,-1.8298693339961423,30.44357344270128,28.613704108705136,149.44962999121097
63,-1.7761419444343078,32.93639168316487,31.160249738730563,161.68704897797394
64,-1.724589032222132,33.14316401852809,31.41857498630596,162.702108825354
65,-1.668965272993069,34.05309224378794,32.38412697079487,167.1690100857987
66,-1.6120429460392693,35.73542102674052,34.12337808070125,175.42767967361956
67,-1.5509303543556385,37.422105717491185,35.87117536313555,183.70773271729274
68,-1.4858107803741996,36.34807909102703,34.86226831065283,178.4352609350993
69,-1.4247850094200607,35.32263515388725,33.897850144467185,173.40128497065768
70,-1.363554394618197,33.83195591225522,32.46840151763702,166.0834363772004
71,-1.2970849688182553,33.53670036019758,32.239615391379324,164.63400623422075
72,-1.2285870465319153,33.86563849835672,32.6370514518248,166.24878654673583
73,-1.1590057026934195,33.21539271483618,32.05638701214276,163.05668454421
74,-1.0869952830840388,31.834436280535837,30.747440997451797,156.27747288140674
75,-1.00841315859764,36.198950086033726,35.190536927436085,177.70317622568913
76,-0.9327871123648264,35.402541704547815,34.46975459218299,173.79355181320074
77,-0.8562748882423552,36.17950956495549,35.323234676713135,177.60774134885224
78,-0.7740156299883134,37.8397361338371,37.06572050384879,185.75790962288647
79,-0.6935340787325991,36.82242108894152,36.12888701020892,180.76383895866925
80,-0.6061472147230375,37.67855893530635,37.07241172058331,184.96667948924997
81,-0.5193462448267927,38.07589155277068,37.556545307943885,186.9172130813477
82,-0.4239907258876099,38.919760729151754,38.49577000326414,191.05982585341624
83,-0.3313704826133088,39.22636585574014,38.89499537312683,192.56497185108583
84,-0.23411830003192455,39.361672974176074,39.12755467414415,193.2292039532563
85,-0.13415904805813747,39.460936222282946,39.32677717422481,193.71649417656795
86,-0.03143695643637559,38.73100043270364,38.699563476267265,190.1331883640854
87,0.06578843747463858,38.990019073902786,39.055807511377424,191.40472897875395
88,0.1628604027980372,39.98235787796295,40.145218280760986,196.2761895309076
89,0.26475790262548454,40.25273524790029,40.51749315052577,197.60349093891037
90,0.3721353993548732,40.93154437606349,41.30367977541837,200.9358123968228
91,0.4809033727216288,41.32379455929986,41.80469793202149,202.86139596404084
92,0.593556148745579,39.447859597481596,40.04141574622717,193.6523001113813
93,0.7030372591921958,37.29783581865549,38.000873077847686,183.09768309762526
94,0.8135331780520298,37.10874532332871,37.922278501380745,182.16942463891868
95,0.9327922029667236,36.2577960594053,37.190588262372025,177.99205522221715
96,1.0511272553976636,34.4154496851583,35.46657694055597,168.9478480937378
97,1.1754893487488363,35.42000856352644,36.59549791227527,173.87929784483453
98,1.2968612833543003,33.662460831586124,34.95932211494043,165.25137317873904
99,1.4184628993531925,34.65907170597554,36.07753460532874,170.14380562275045
100,1.5419129377972145,34.096469751709684,35.6383826895069,167.38195330421053
101,1.6636687526905323,33.196638241703475,34.86030699439401,162.96461752469148
102,1.7858666240819052,34.022414753069135,35.80828137715104,167.01841213954864
103,1.900313583678049,32.46087546692665,34.3611890506047,159.35270663457666
104,2.0149096187080393,31.80601899977388,33.82092861848192,156.13797046382018
105,2.1352037840011997,32.6147022080236,34.7499059920248,160.10785285888446
106,2.2545723499580226,35.85881323719243,38.113385587150454,176.03342065966194
107,2.380478452965664,37.89633790184522,40.27681635481088,186.03577165841864
108,2.5014065282193476,36.14882138382394,38.65022791204329,177.4570909226188
109,2.6279070133678264,35.65130041168997,38.27920742505779,175.0147256944292
110,2.7537455797803165,34.199846191645655,36.95359177142597,167.88943547371727
111,2.8774985916213027,33.00540753528669,35.882906126908,162.0258526201465
112,2.9934093325736972,32.02499464004895,35.01840397262265,157.21293718800555
113,3.1028785181507446,33.06928415294059,36.172162671091336,162.33942740109106
114,3.2088923039787076,31.78752769317549,34.9964199971542,156.04719534721357
115,3.320298469965232,32.19993488420026,35.52023335416549,158.07173107461
116,3.4374033559392023,34.58486983546817,38.02227319140737,169.77954345382818
117,3.568042371621048,36.820927568521654,40.3889699401427,180.75650716253327
118,3.698010348845647,35.52862182193393,39.22663217077958,174.4124879222639
119,3.8215455793777897,34.78204728334027,38.60359286271806,170.7475013278458
120,3.9595783436573795,36.05607427532339,40.015652618980766,177.00178888410315
121,4.10027952471431,36.408613253098416,40.508892777812726,178.7324273679566
122,4.238528457013985,34.771165832019854,39.00969428903384,170.69408352271645
123,4.3740945147953925,36.48686147615737,40.86095599095277,179.1165533643887
124,4.510797970800428,36.21182005669772,40.72261802749814,177.7663558112707
125,4.664220596122695,37.74612686106925,42.410347457191946,185.29837515971866
126,4.827750711763513,38.41157230861035,43.23932302037387,188.56509337535562
127,4.98120459076518,35.82940045209833,40.81060504286351,175.8890312417246
128,5.144666361923451,38.42035347256546,43.56501983448891,188.6082007230017
129,5.304133261749802,37.64046768513262,42.944600946882424,184.7796868796248
130,5.477572481119217,37.93878107820163,43.41635355932085,186.24412817786782
131,5.633420763775569,36.04178845378999,41.67520921756556,176.9316587876378
132,5.792749600481505,37.51120928748017,43.30395888796168,184.14514837057712
133,5.953706148835661,37.83687382923658,43.790579978072245,185.74385836953164
134,6.118091665674774,39.07219621908073,45.190287884755506,191.808142328494
135,6.272566806457065,38.88556127674478,45.158128083201845,190.891938351059
136,6.433394688064627,39.306255514604146,45.73965020266877,192.95715577061884
137,6.597945779515069,38.18475002825943,44.7826958077745,187.45160694656929
138,6.769410556211518,39.79553681874465,46.56494737495617,195.35907189268787
139,6.9503392501379535,39.94442354245351,46.89476279259146,196.08996722633754
140,7.126846401915913,39.825494956841865,46.95234135875778,195.50613848663681
141,7.29793275239843,39.60912717466259,46.90705992706102,194.44397392012914
142,7.473018203511433,39.78872224643065,47.26174044994208,195.32561868086984
143,7.666107642222702,39.46541644427818,47.13152408650089,193.7384878995035
144,7.851603445369444,37.790220136494206,45.64182358186365,185.51483213083486
145,8.033598032024072,37.559099155507454,45.59269718753153,184.38024308015437
146,8.211419097574456,35.52032686943968,43.731745967014135,174.3717674206646
147,8.39231928289858,35.19485276266861,43.587172045567186,172.77399228036427
148,8.567818698873435,37.38729543012543,45.95511412899886,183.53684658342638
149,8.740931616981374,36.40282955745186,45.14376117443324,178.70403480175582
150,8.913699565712111,35.27500783732893,44.188707403041036,173.16747914459356
151,9.092148222909778,33.57104544254207,42.66319366545185,164.80260864412062
152,9.276385665431238,34.71863759512934,43.99502326056057,170.43621873617442
153,9.459735549316044,35.76382215772345,45.2235577070395,175.56710281081203
154,9.640580782712862,36.24673021502226,45.88731099773512,177.93773221865456
155,9.821925654285662,35.87980886377378,45.701734518059446,176.1364896581132
156,10.010128982303609,36.41591582198059,46.4260448042842,178.768276189038
157,10.183412977727455,34.30161388693086,44.485026864658316,168.3890202032845
158,10.363587690012269,37.916828581284754,48.28041627129702,186.13636183605567
159,10.559482886083213,41.39000212869625,51.94948501477947,203.18641355001938
160,10.742089753454014,40.327019555253976,51.06910930870799,197.9681577960734
161,10.913319321927492,39.771069553383185,50.684388875310674,195.23896037680257
162,11.086834492187146,40.55476121569753,51.641595707884676,199.0861575259978
163,11.2672643720539,42.12545270928901,53.39271708134291,206.7967918570627
164,11.442829869447872,41.46950096530669,52.91233083475456,203.57667889579176
165,11.603901343624456,40.168748056564574,51.77264940018903,197.19119194606225
166,11.762630335017898,37.98974743430572,49.752377769323616,186.49432558245613
167,11.924145608949056,39.01570068195614,50.939846290905194,191.53080178779447
168,12.08171526974025,36.98010031743001,49.06181558717026,181.5378973128653
169,12.233813714519746,37.389719673236364,49.62353338775611,183.54874736230897
170,12.382011951848044,36.16246242027424,48.54447437212228,177.52405572404166
171,12.525756069708853,35.49789411877662,48.023650188485476,174.26164347964342
172,12.672170873633005,36.888198853591376,49.56036972722438,181.0867466031044
173,12.832983162450216,38.80973444940559,51.6427176118558,190.51969915546724
174,12.984755603371887,39.15093589203443,52.13569149540632,192.19468088681103
175,13.127660342985914,40.75266757674246,53.88032791972837,200.0576936857308
176,13.266283270005031,41.15079527699942,54.41707854700445,202.01213039483267
177,13.41673223402335,41.104739842603465,54.521472076626814,201.7860410481758
178,13.56837018804885,40.859065954947845,54.4274361429967,200.5800107614311
179,13.724543893182394,39.967065083681995,53.69160897686439,196.2011161348386
180,13.872985431978572,40.075795287544544,53.948780719523114,196.73488030568114
181,14.036967589373017,40.141694523005505,54.17866211237852,197.05838425881856
182,14.19743086582768,38.447767635970045,52.64519850179772,188.74277876736446
183,14.346653191022174,39.47484068302102,53.8214938740432,193.7847521462325
184,14.493938143664991,39.1001811360366,53.594119279701594,191.94552224193492
185,14.63608283989248,36.69112126830114,51.32720410819362,180.11927896148134
186,14.78196804745864,39.266032245800055,54.048000293258696,192.75969693251227
187,14.948116611585998,37.77346088823571,52.721577499821706,185.43255980968712
188,15.104104554680536,35.794346248752845,50.89845080343338,175.71694770726438
189,15.251075960802805,36.59125158912241,51.842327549925216,179.62901172564935
190,15.396793035353346,35.24796526790365,50.644758303257,173.03472528104905
191,15.518912574535445,34.413261882897174,49.93217445743262,168.9371080195138
192,15.639349634530266,37.09036528472044,52.72971491925071,182.07919574465302
193,15.745418255332915,32.790581452028576,48.53599970736149,160.97125636140527
194,15.841550124335152,33.3756354614904,49.21718558582555,163.84332738826777
195,15.933393570651269,31.731712071956036,47.6651056426073,155.77319256121746
196,16.03060148640702,31.654600046085914,47.68520153249293,155.3946442362039
197,16.117380472235187,28.306384635122093,44.42376510735728,138.95802074845164
198,16.200636573326484,28.746062553140362,44.94669912646685,141.1164303808429
199,16.29122110125104,29.32932914889981,45.62055025015085,143.97972686890287
200,16.38466874088357,30.795083542081862,47.17975228296543,151.17521763910904
